Date,Open,High,Low,Close,Volume,Adj Close,Return
1993-04-23,18.03,18.74,17.08,17.08,33300,3.37,0.0
1993-05-03,16.96,17.79,15.18,16.37,40900,3.23,-0.041543026706231445
1993-06-01,16.49,17.55,16.49,17.43,59900,3.44,0.06501547987616108
1993-07-01,17.43,18.03,16.96,17.67,63900,3.49,0.014534883720930258
1993-08-02,17.79,18.19,17.48,18.19,15900,3.6,0.03151862464183375
1993-09-01,18.08,19.98,17.36,19.98,53100,3.95,0.09722222222222232
1993-10-01,19.98,20.93,19.86,20.1,65500,3.97,0.005063291139240533
1993-11-01,20.1,20.74,18.83,20.5,39000,4.07,0.02518891687657443
1993-12-01,20.26,20.62,19.19,19.79,48400,3.92,-0.03685503685503699
1994-01-03,19.55,20.03,19.19,19.91,21300,3.95,0.007653061224489832
1994-02-01,20.15,21.15,19.6,21.15,25700,4.2,0.06329113924050622
1994-03-01,21.15,21.75,20.31,20.43,59300,4.06,-0.03333333333333344
1994-04-04,20.31,21.75,20.31,21.39,46400,4.25,0.046798029556650356
1994-05-02,21.15,23.48,21.09,23.36,56600,4.66,0.09647058823529409
1994-06-01,23.12,24.56,21.69,21.81,38900,4.35,-0.06652360515021472
1994-07-01,21.93,23.72,21.81,23.36,17900,4.66,0.07126436781609202
1994-08-01,23.36,23.48,21.26,22.58,34200,4.51,-0.032188841201716833
1994-09-01,22.58,26.06,22.1,25.94,247100,5.18,0.14855875831485577
1994-10-03,25.94,26.66,25.58,26.18,151300,5.23,0.009652509652509744
1994-11-01,26.18,27.44,24.31,24.8,144500,4.97,-0.04971319311663491
1994-12-01,24.8,27.93,23.95,27.69,80700,5.55,0.11670020120724356
1995-01-03,27.44,27.56,24.44,24.8,66400,4.97,-0.10450450450450455
1995-02-01,24.8,28.11,23.77,27.51,105400,5.52,0.11066398390342047
1995-03-01,27.63,28.35,25.46,27.63,73200,5.55,0.005434782608695787
1995-04-03,27.51,29.2,26.91,28.47,91700,5.72,0.03063063063063054
1995-05-01,28.47,30.95,28.47,29.5,75300,5.94,0.03846153846153855
1995-06-01,29.5,31.07,29.5,31.07,84400,6.25,0.05218855218855212
1995-07-03,31.07,32.16,29.98,32.16,86600,6.47,0.0351999999999999
1995-08-01,31.92,32.35,30.41,30.77,93200,6.21,-0.040185471406491424
1995-09-01,30.77,33.2,30.65,32.11,62800,6.47,0.041867954911433136
1995-10-02,31.98,33.44,30.17,33.2,100600,6.69,0.03400309119010836
1995-11-01,33.08,34.96,32.95,34.96,141600,7.06,0.05530642750373671
1995-12-01,34.96,37.15,34.11,36.3,113000,7.33,0.03824362606232312
1996-01-02,36.06,36.42,33.75,36.18,101100,7.31,-0.0027285129604366354
1996-02-01,35.93,36.85,35.27,35.51,107900,7.19,-0.01641586867305056
1996-03-01,36.37,40.74,35.76,40.38,191000,8.18,0.1376912378303199
1996-04-01,40.38,41.96,35.64,36.61,292400,7.41,-0.09413202933985321
1996-05-01,36.61,41.31,36.43,41.31,222200,8.38,0.1309041835357625
1996-06-03,41.18,41.31,28.27,29.49,332200,5.98,-0.28639618138424827
1996-07-01,29.61,34.36,29.61,32.41,160300,6.57,0.09866220735785958
1996-08-01,33.51,36.26,33.02,34.19,98400,6.95,0.05783866057838649
1996-09-03,34.19,34.43,30.89,31.38,125300,6.38,-0.08201438848920872
1996-10-01,31.5,32.84,29.79,31.5,109400,6.4,0.0031347962382446415
1996-11-01,31.33,35.36,31.33,33.77,137600,6.88,0.07499999999999996
1996-12-02,33.9,34.87,32.06,34.51,148100,7.03,0.0218023255813955
1997-01-02,34.38,35.24,32.06,32.79,161600,6.68,-0.049786628733997196
1997-02-03,34.33,38.99,34.09,38.99,196400,7.96,0.19161676646706582
1997-03-03,38.87,39.85,36.79,37.52,133900,7.66,-0.03768844221105527
1997-04-01,37.64,39.73,34.46,39.24,190300,8.01,0.04569190600522188
1997-05-01,39.24,43.61,38.5,43.61,104100,8.92,0.11360799001248445
1997-06-02,43.73,45.08,42.01,44.47,127000,9.09,0.01905829596412545
1997-07-01,44.22,51.16,43.73,49.99,143000,10.22,0.1243124312431243
1997-08-01,49.89,55.36,49.83,55.36,145300,11.34,0.1095890410958904
1997-09-02,55.36,58.19,53.27,55.06,145900,11.28,-0.005291005291005346
1997-10-01,55.06,57.08,52.66,54.15,119200,11.11,-0.01507092198581561
1997-11-03,54.03,56.74,49.71,56.18,95100,11.53,0.03780378037803778
1997-12-01,56.18,58.28,51.69,54.7,122600,11.22,-0.026886383347788256
1998-01-02,54.77,54.77,47.25,50.27,222300,10.31,-0.08110516934046341
1998-02-02,50.47,58.0,50.35,56.95,161000,11.7,0.1348205625606207
1998-03-02,56.95,62.81,56.95,59.29,177100,12.18,0.0410256410256411
1998-04-01,59.29,62.44,55.28,61.7,190400,12.68,0.0410509031198687
1998-05-01,61.58,65.12,59.97,64.07,182600,13.18,0.039432176656151396
1998-06-01,64.07,65.06,57.83,61.47,146300,12.65,-0.04021244309559935
1998-07-01,61.53,66.11,59.31,60.93,406400,12.55,-0.007905138339920903
1998-08-03,61.0,62.23,27.22,28.09,157200,11.57,-0.07808764940239044
1998-09-01,27.47,29.01,21.53,22.52,246500,9.28,-0.1979256698357823
1998-10-01,22.52,29.69,19.49,26.52,247900,10.94,0.17887931034482762
1998-11-02,26.76,28.87,26.52,27.69,193900,11.43,0.04478976234003662
1998-12-01,27.63,29.86,24.78,27.82,169300,11.48,0.004374453193350947
1999-01-04,27.38,28.5,23.79,27.07,170800,11.17,-0.027003484320557547
1999-02-01,27.11,28.73,22.96,27.18,145800,11.23,0.005371530886302711
1999-03-01,27.42,29.41,24.69,25.81,121600,10.67,-0.04986642920747997
1999-04-01,25.93,29.78,23.64,27.8,147200,11.49,0.07685098406747892
1999-05-03,27.21,31.31,25.35,27.34,157000,11.31,-0.015665796344647487
1999-06-01,27.46,30.32,27.09,29.82,148600,12.34,0.09106984969053933
1999-07-01,30.07,30.69,26.47,28.82,161900,11.95,-0.031604538087520284
1999-08-02,28.69,28.88,24.71,25.64,158400,10.63,-0.11046025104602497
1999-09-01,25.64,27.01,22.41,26.64,188400,11.05,0.03951081843838189
1999-10-01,26.52,27.08,23.78,26.82,151500,11.14,0.008144796380090469
1999-11-01,26.69,29.19,26.01,27.07,146400,11.24,0.008976660682226134
1999-12-01,26.88,28.19,24.63,25.07,180700,10.41,-0.07384341637010672
2000-01-03,25.07,28.56,21.95,21.95,205700,9.12,-0.12391930835734877
2000-02-01,22.08,25.94,21.5,23.94,305200,9.97,0.09320175438596512
2000-03-01,23.94,27.62,20.12,26.69,254600,11.11,0.11434302908726157
2000-04-03,26.88,28.5,23.38,28.5,163500,11.87,0.06840684068406833
2000-05-01,28.0,28.0,25.75,26.56,125800,11.08,-0.06655433866891314
2000-06-01,26.56,29.31,26.5,27.0,197200,11.26,0.016245487364620947
2000-07-03,27.25,30.0,23.38,24.94,227200,10.42,-0.07460035523978681
2000-08-01,24.94,26.19,22.25,23.31,193500,9.74,-0.06525911708253351
2000-09-01,23.38,25.38,21.88,23.94,197000,10.0,0.026694045174537884
2000-10-02,24.19,24.56,19.38,20.69,292100,8.67,-0.133
2000-11-01,20.75,25.19,19.88,25.0,310800,10.47,0.20761245674740492
2000-12-01,25.0,30.12,25.0,29.38,190500,12.31,0.1757402101241643
2001-01-02,29.38,30.33,26.44,29.92,217900,12.53,0.017871649065799966
2001-02-01,29.92,30.23,28.22,28.7,173600,12.04,-0.03910614525139666
2001-03-01,28.6,31.6,28.51,30.47,245200,12.79,0.06229235880398676
2001-04-02,30.47,32.8,29.25,31.58,168500,13.27,0.037529319781079096
2001-05-01,31.58,37.21,31.0,32.96,210100,13.85,0.04370761115297661
2001-06-01,33.1,36.0,31.82,32.43,180700,13.63,-0.01588447653429592
2001-07-02,32.65,34.1,30.5,33.0,143800,13.9,0.019809244314013208
2001-08-01,33.0,37.0,32.75,35.79,130300,15.07,0.08417266187050365
2001-09-04,35.79,36.7,28.5,31.8,187100,13.39,-0.11147976111479763
2001-10-01,31.8,34.74,27.1,30.1,230700,12.7,-0.05153099327856614
2001-11-01,30.2,33.15,30.0,32.8,177800,13.84,0.0897637795275592
2001-12-03,32.8,35.1,32.44,35.03,198000,14.78,0.06791907514450868
2002-01-02,35.03,35.42,29.75,32.08,438500,13.53,-0.08457374830852504
2002-02-04,31.95,35.04,31.34,34.6,214100,14.63,0.08130081300813008
2002-03-01,34.8,35.19,33.12,35.05,233400,14.82,0.01298701298701288
2002-04-01,35.0,38.0,34.56,37.15,166800,15.73,0.06140350877192979
2002-05-01,37.14,38.74,35.32,37.38,155600,15.83,0.006357279084551859
2002-06-03,37.38,37.4,30.75,30.75,257400,13.02,-0.1775110549589387
2002-07-01,31.12,32.6,26.6,29.92,208700,12.7,-0.02457757296466978
2002-08-01,29.8,32.3,28.6,32.1,96800,13.62,0.07244094488188968
2002-09-03,32.0,32.15,26.3,26.87,145900,11.4,-0.16299559471365632
2002-10-01,26.97,28.1,24.84,27.93,173500,11.88,0.04210526315789487
2002-11-01,27.85,30.35,27.63,29.88,108100,12.71,0.06986531986531985
2002-12-02,30.08,33.01,29.77,31.24,206400,13.28,0.04484657749803289
2003-01-02,31.25,31.49,27.76,28.68,97000,12.2,-0.08132530120481929
2003-02-03,28.62,30.35,26.51,30.3,167900,12.91,0.058196721311475574
2003-03-03,30.27,33.02,29.45,32.35,174000,13.78,0.06738962044926411
2003-04-01,32.25,34.71,30.65,34.42,167000,14.69,0.0660377358490567
2003-05-01,34.2,35.33,33.9,35.0,154700,14.94,0.017018379850238352
2003-06-02,35.11,36.5,34.0,36.0,125500,15.36,0.028112449799196693
2003-07-01,36.0,37.95,35.15,37.25,140700,15.93,0.037109375
2003-08-01,37.15,39.2,35.6,39.16,99100,16.74,0.05084745762711851
2003-09-02,39.0,39.7,35.71,36.69,141500,15.69,-0.06272401433691754
2003-10-01,36.75,39.8,35.6,35.8,146100,15.34,-0.02230720203951564
2003-11-03,35.8,37.18,34.5,34.91,159200,14.95,-0.025423728813559365
2003-12-01,35.0,39.48,34.9,39.0,270200,16.71,0.11772575250836126
2004-01-02,38.99,41.06,38.3,40.07,184800,17.16,0.026929982046678624
2004-02-02,40.1,42.0,39.16,40.45,130800,17.36,0.011655011655011593
2004-03-01,40.65,41.07,36.71,38.4,152100,16.48,-0.05069124423963123
2004-04-01,38.4,42.58,38.15,39.3,173600,16.89,0.02487864077669899
2004-05-03,39.1,40.92,37.6,40.65,187700,17.47,0.03433984606275886
2004-06-01,40.35,44.2,40.1,43.69,310100,18.78,0.07498568975386388
2004-07-01,43.94,44.86,41.55,42.31,264100,18.25,-0.028221512247071368
2004-08-02,42.11,45.7,40.91,45.44,187000,19.6,0.07397260273972606
2004-09-01,45.3,46.9,43.33,43.97,166700,18.97,-0.03214285714285725
2004-10-01,44.21,48.01,44.1,46.92,234400,20.31,0.07063784923563521
2004-11-01,47.0,53.07,46.6,52.55,193100,22.74,0.11964549483013287
2004-12-01,51.65,54.89,50.25,52.78,193200,22.84,0.004397537379067895
2005-01-03,52.95,54.89,47.28,48.49,203400,21.05,-0.07837127845884406
2005-02-01,48.41,51.98,48.13,51.62,208300,22.41,0.06460807600950114
2005-03-01,51.62,53.35,49.32,51.98,226400,22.57,0.007139669790272141
2005-04-01,52.1,54.87,47.0,48.23,310300,21.0,-0.06956136464333185
2005-05-02,48.3,52.61,48.18,50.0,230500,21.77,0.036666666666666625
2005-06-01,50.08,51.38,47.95,50.8,336700,22.12,0.016077170418006492
2005-07-01,50.8,52.1,49.25,49.85,193700,21.79,-0.014918625678119413
2005-08-01,49.96,50.73,47.8,49.73,170700,21.74,-0.0022946305644792053
2005-09-01,49.73,51.0,47.11,49.81,174700,21.78,0.0018399264029440587
2005-10-03,50.05,52.9,47.6,51.19,306200,22.47,0.031680440771349794
2005-11-01,51.5,54.9,50.27,54.85,167100,24.08,0.07165109034267902
2005-12-01,54.66,55.48,52.0,52.2,210800,22.91,-0.04858803986710958
2006-01-03,52.37,56.44,51.71,56.44,149300,24.86,0.08511567001309461
2006-02-01,56.25,57.45,52.45,53.05,190700,23.37,-0.05993563958165726
2006-03-01,53.23,55.34,52.48,55.25,167500,24.34,0.04150620453572951
2006-04-03,55.25,55.33,51.02,52.41,195400,23.18,-0.04765817584223497
2006-05-01,52.41,54.7,50.4,52.6,189000,23.26,0.003451251078516071
2006-06-01,52.5,53.1,49.61,49.61,571100,21.94,-0.05674978503869299
2006-07-03,50.36,51.92,46.86,51.5,382100,22.88,0.042844120328167534
2006-08-01,51.35,52.75,49.87,51.5,243200,22.88,0.0
2006-09-01,51.7,52.24,48.9,50.88,317300,22.6,-0.012237762237762184
2006-10-02,50.57,56.75,49.39,54.91,317900,24.49,0.08362831858407072
2006-11-01,54.98,61.27,53.76,61.26,392100,27.32,0.11555737035524705
2006-12-01,61.09,62.29,57.84,59.04,332800,26.33,-0.03623718887262084
2007-01-03,59.5,62.0,57.45,61.01,340200,27.31,0.037219901253323195
2007-02-01,61.3,70.34,60.3,65.79,625600,29.45,0.0783595752471622
2007-03-01,65.0,68.56,64.5,66.93,397400,29.96,0.017317487266553577
2007-04-02,67.2,76.98,66.68,73.25,383600,32.9,0.09813084112149517
2007-05-01,73.58,75.55,35.99,37.56,380000,33.74,0.025531914893617058
2007-06-01,37.81,38.3,35.0,35.56,332400,31.94,-0.05334914048606998
2007-07-02,35.86,39.42,34.99,36.4,496600,32.81,0.027238572323105892
2007-08-01,36.25,40.09,34.84,36.33,503800,32.75,-0.0018287107589149976
2007-09-04,36.1,38.22,33.37,37.87,415900,34.14,0.04244274809160298
2007-10-01,37.79,44.75,37.75,44.7,418200,40.41,0.18365553602811935
2007-11-01,44.23,44.45,39.83,42.21,413000,38.16,-0.055679287305122505
2007-12-03,42.06,44.01,39.69,40.91,328000,36.99,-0.030660377358490476
2008-01-02,40.68,42.72,32.87,37.7,613600,34.21,-0.07515544741822122
2008-02-01,37.82,40.07,33.87,37.48,827300,34.01,-0.005846243788366068
2008-03-03,37.29,39.76,34.51,38.93,592000,35.32,0.038518082916789265
2008-04-01,39.37,45.42,38.98,44.15,486900,40.17,0.13731596828992076
2008-05-01,44.16,45.89,42.49,44.72,434700,40.69,0.012944983818770073
2008-06-02,44.89,46.19,40.74,41.95,711000,38.17,-0.06193167854509696
2008-07-01,41.44,43.64,36.54,38.7,606500,35.36,-0.07361802462667022
2008-08-01,39.04,41.11,37.69,40.39,308200,36.9,0.04355203619909509
2008-09-02,40.79,44.03,37.65,39.11,461600,35.73,-0.03170731707317076
2008-10-01,39.02,39.75,23.74,30.32,675800,27.85,-0.22054296109711713
2008-11-03,30.31,33.44,27.84,33.44,453000,30.72,0.10305206463195682
2008-12-01,32.49,35.49,29.25,35.24,541500,32.37,0.0537109375
2009-01-02,35.39,36.08,29.04,30.82,546100,28.45,-0.1210997837503861
2009-02-02,30.38,30.93,26.25,28.06,623000,25.91,-0.0892794376098418
2009-03-02,27.62,32.51,24.95,31.14,431600,28.75,0.10961018911617137
2009-04-01,30.71,33.55,28.61,31.03,434000,28.79,0.0013913043478259723
2009-05-01,30.78,31.93,30.01,31.01,312600,28.77,-0.0006946856547411784
2009-06-01,31.55,34.26,31.55,33.77,280500,31.33,0.08898157803267281
2009-07-01,33.89,36.49,32.14,34.92,225300,32.53,0.03830194701564005
2009-08-03,35.34,36.21,34.3,34.38,141200,32.03,-0.015370427297878853
2009-09-01,34.31,38.09,33.58,37.36,191400,34.81,0.08679363097096471
2009-10-01,37.11,38.96,35.04,35.31,244900,33.03,-0.05113473139902325
2009-11-02,35.38,37.3,34.52,36.12,189800,33.79,0.02300938540720554
2009-12-01,36.3,37.09,35.74,35.74,160900,33.43,-0.010654039656703196
2010-01-04,35.89,37.01,35.48,35.48,165800,33.19,-0.007179180376907013
2010-02-01,35.41,38.65,34.46,38.53,249000,36.2,0.09068996685748743
2010-03-01,38.56,40.85,38.34,39.35,185900,36.97,0.021270718232044183
2010-04-01,38.86,44.36,38.63,43.04,230700,40.57,0.09737625101433589
2010-05-03,43.29,44.12,37.34,39.86,272700,37.58,-0.07369977816120288
2010-06-01,39.72,41.12,37.41,37.82,192000,35.65,-0.0513571048430016
2010-07-01,37.81,43.82,36.91,43.07,185300,40.77,0.14361851332398334
2010-08-02,43.78,44.05,40.31,41.65,142700,39.43,-0.03286730439048324
2010-09-01,42.32,46.55,41.93,45.67,159900,43.23,0.09637331980725339
2010-10-01,46.09,47.61,44.4,44.88,170400,42.49,-0.017117742308581874
2010-11-01,45.03,46.92,44.54,45.67,137000,43.41,0.02165215344786997
2010-12-01,46.45,48.45,46.36,47.57,160500,45.21,0.041465100207325634
2011-01-03,47.78,49.14,46.75,48.06,150300,45.85,0.014156160141561624
2011-02-01,48.23,50.06,46.95,48.17,184300,45.96,0.002399127589967298
2011-03-01,48.21,50.19,46.5,50.13,176000,47.83,0.04068755439512617
2011-04-01,50.41,52.75,48.85,52.45,123300,50.22,0.049968638929542175
2011-05-02,52.54,53.8,51.03,53.4,222300,51.13,0.018120270808442918
2011-06-01,53.32,53.48,49.93,52.34,198600,50.11,-0.019949149227459495
2011-07-01,52.58,54.66,47.61,51.05,224500,49.09,-0.02035521851925759
2011-08-01,51.53,51.66,44.96,50.48,290600,48.54,-0.011203911183540471
2011-09-01,50.65,50.97,44.66,44.67,263200,42.95,-0.11516275236917994
2011-10-03,44.35,49.85,41.98,47.97,194800,46.13,0.07403958090803253
2011-11-01,47.41,50.83,45.98,50.79,250000,49.06,0.06351615001083899
2011-12-01,50.53,52.87,48.8,52.17,215000,50.39,0.027109661638809568
2012-01-03,53.18,53.44,51.01,52.42,209100,50.85,0.009128795395911826
2012-02-01,52.75,53.82,51.15,52.78,221400,51.2,0.0068829891838742
2012-03-01,53.01,55.0,51.96,54.77,242500,53.13,0.03769531249999991
2012-04-02,54.76,55.49,52.03,54.51,255900,53.09,-0.0007528703180876839
2012-05-01,54.4,55.39,49.63,50.67,436500,49.35,-0.07044641175362598
2012-06-01,49.56,53.26,49.36,51.05,220900,49.72,0.0074974670719352154
2012-07-02,51.07,52.74,47.56,50.01,282500,48.71,-0.020313757039420732
2012-08-01,50.12,51.14,48.08,50.65,179300,49.55,0.01724491890782165
2012-09-04,50.72,53.19,50.07,51.71,278200,50.59,0.02098890010090826
2012-10-01,51.71,53.06,49.97,51.28,169000,50.17,-0.008302035975489286
2012-11-01,51.39,53.36,45.19,47.67,359100,46.84,-0.06637432728722337
2012-12-03,48.02,48.55,46.61,47.72,302000,46.89,0.0010674637062340064
2013-01-02,48.95,52.39,48.14,51.53,266800,50.88,0.08509277031349982
2013-02-01,52.01,53.99,51.42,53.94,248700,53.26,0.04677672955974832
2013-03-01,53.66,57.47,52.97,57.35,214200,56.63,0.0632745024408563
2013-04-01,57.42,57.69,54.4,56.1,232700,55.64,-0.017481900052975452
2013-05-01,56.01,57.52,55.31,56.72,204300,56.25,0.01096333572969077
2013-06-03,56.71,57.76,54.13,55.21,199900,54.76,-0.026488888888888895
2013-07-01,55.49,60.11,55.36,58.39,200900,58.16,0.06208911614317025
2013-08-01,59.12,60.74,58.43,58.81,154200,58.58,0.007221458046767548
2013-09-03,59.44,60.75,57.4,60.13,214100,59.89,0.022362581085694888
2013-10-01,59.98,64.53,59.19,64.16,209400,63.91,0.06712305894139248
2013-11-01,64.42,64.78,63.07,64.72,178300,64.72,0.01267407291503675
